# Temperatura_=_20.0
# Concentracion g/m^3_=_700.0
# C_Vs_to_Am_M_A/Vsm_=_25649819763.59163
# pendiente_HvsI_1/m_=_3716.3
# ordenada_HvsI_A/m_=_1297.0
# frecuencia_Hz_=_312867.29943939176
# Promedio de 15 ciclos

Tiempo_(s)	Campo_(V.s)	Magnetizacion_(V.s)	Campo_(kA/m)	Magnetizacion_(A/m)
0.000000e+00	-6.583489e-09	-1.791563e-09	-5.689956e+01	-4.213658e+01
1.000000e-08	-6.581057e-09	-1.762921e-09	-5.687854e+01	-4.211432e+01
2.000000e-08	-6.576245e-09	-1.753134e-09	-5.683695e+01	-4.209875e+01
3.000000e-08	-6.569238e-09	-1.766065e-09	-5.677639e+01	-4.209152e+01
4.000000e-08	-6.559899e-09	-1.762944e-09	-5.669568e+01	-4.209004e+01
5.000000e-08	-6.548080e-09	-1.759157e-09	-5.659353e+01	-4.208772e+01
6.000000e-08	-6.533680e-09	-1.780454e-09	-5.646907e+01	-4.207550e+01
7.000000e-08	-6.516736e-09	-1.794873e-09	-5.632263e+01	-4.204445e+01
8.000000e-08	-6.497603e-09	-1.774892e-09	-5.615728e+01	-4.198867e+01
9.000000e-08	-6.476124e-09	-1.670625e-09	-5.597164e+01	-4.190776e+01
1.000000e-07	-6.451634e-09	-1.593701e-09	-5.575998e+01	-4.180819e+01
1.100000e-07	-6.424111e-09	-1.694069e-09	-5.552211e+01	-4.170291e+01
1.200000e-07	-6.394075e-09	-1.769367e-09	-5.526251e+01	-4.160929e+01
1.300000e-07	-6.361792e-09	-1.651362e-09	-5.498350e+01	-4.154569e+01
1.400000e-07	-6.327233e-09	-1.611572e-09	-5.468482e+01	-4.152743e+01
1.500000e-07	-6.290691e-09	-1.752051e-09	-5.436899e+01	-4.156313e+01
1.600000e-07	-6.252411e-09	-1.774352e-09	-5.403815e+01	-4.165236e+01
1.700000e-07	-6.211885e-09	-1.634626e-09	-5.368789e+01	-4.178511e+01
1.800000e-07	-6.168796e-09	-1.618888e-09	-5.331549e+01	-4.194342e+01
1.900000e-07	-6.123481e-09	-1.717184e-09	-5.292383e+01	-4.210470e+01
2.000000e-07	-6.075836e-09	-1.630373e-09	-5.251206e+01	-4.224600e+01
2.100000e-07	-6.025496e-09	-1.547466e-09	-5.207698e+01	-4.234829e+01
2.200000e-07	-5.972555e-09	-1.642813e-09	-5.161943e+01	-4.239976e+01
2.300000e-07	-5.917169e-09	-1.596038e-09	-5.114074e+01	-4.239735e+01
2.400000e-07	-5.859470e-09	-1.496664e-09	-5.064206e+01	-4.234631e+01
2.500000e-07	-5.799469e-09	-1.595452e-09	-5.012349e+01	-4.225802e+01
2.600000e-07	-5.737227e-09	-1.602810e-09	-4.958555e+01	-4.214658e+01
2.700000e-07	-5.672849e-09	-1.468354e-09	-4.902914e+01	-4.202524e+01
2.800000e-07	-5.606177e-09	-1.501392e-09	-4.845291e+01	-4.190339e+01
2.900000e-07	-5.537250e-09	-1.614598e-09	-4.785719e+01	-4.178487e+01
3.000000e-07	-5.466230e-09	-1.538782e-09	-4.724338e+01	-4.166783e+01
3.100000e-07	-5.392976e-09	-1.460928e-09	-4.661027e+01	-4.154608e+01
3.200000e-07	-5.317343e-09	-1.533045e-09	-4.595659e+01	-4.141132e+01
3.300000e-07	-5.239370e-09	-1.545685e-09	-4.528269e+01	-4.125567e+01
3.400000e-07	-5.159137e-09	-1.491084e-09	-4.458926e+01	-4.107369e+01
3.500000e-07	-5.076846e-09	-1.481597e-09	-4.387804e+01	-4.086351e+01
3.600000e-07	-4.992773e-09	-1.512708e-09	-4.315141e+01	-4.062675e+01
3.700000e-07	-4.907002e-09	-1.488618e-09	-4.241012e+01	-4.036754e+01
3.800000e-07	-4.819441e-09	-1.435399e-09	-4.165334e+01	-4.009089e+01
3.900000e-07	-4.730051e-09	-1.455778e-09	-4.088077e+01	-3.980113e+01
4.000000e-07	-4.638809e-09	-1.457031e-09	-4.009219e+01	-3.950072e+01
4.100000e-07	-4.545787e-09	-1.409707e-09	-3.928822e+01	-3.918985e+01
4.200000e-07	-4.451098e-09	-1.417998e-09	-3.846985e+01	-3.886685e+01
4.300000e-07	-4.354704e-09	-1.438315e-09	-3.763674e+01	-3.852910e+01
4.400000e-07	-4.256557e-09	-1.391939e-09	-3.678848e+01	-3.817421e+01
4.500000e-07	-4.156657e-09	-1.349643e-09	-3.592506e+01	-3.780086e+01
4.600000e-07	-4.055158e-09	-1.356763e-09	-3.504783e+01	-3.740923e+01
4.700000e-07	-3.952108e-09	-1.346657e-09	-3.415720e+01	-3.700072e+01
4.800000e-07	-3.847442e-09	-1.316709e-09	-3.325259e+01	-3.657717e+01
4.900000e-07	-3.741225e-09	-1.313300e-09	-3.233459e+01	-3.613991e+01
5.000000e-07	-3.633529e-09	-1.308086e-09	-3.140379e+01	-3.568889e+01
5.100000e-07	-3.524423e-09	-1.273998e-09	-3.046082e+01	-3.522234e+01
5.200000e-07	-3.413956e-09	-1.245736e-09	-2.950608e+01	-3.473698e+01
5.300000e-07	-3.302125e-09	-1.231700e-09	-2.853954e+01	-3.422874e+01
5.400000e-07	-3.188950e-09	-1.207468e-09	-2.756140e+01	-3.369381e+01
5.500000e-07	-3.074446e-09	-1.181997e-09	-2.657178e+01	-3.312962e+01
5.600000e-07	-2.958629e-09	-1.166413e-09	-2.557080e+01	-3.253529e+01
5.700000e-07	-2.841612e-09	-1.148932e-09	-2.455945e+01	-3.191162e+01
5.800000e-07	-2.723476e-09	-1.116779e-09	-2.353842e+01	-3.126031e+01
5.900000e-07	-2.604278e-09	-1.084735e-09	-2.250823e+01	-3.058292e+01
6.000000e-07	-2.484108e-09	-1.061560e-09	-2.146963e+01	-2.987964e+01
6.100000e-07	-2.362974e-09	-1.033462e-09	-2.042269e+01	-2.914851e+01
6.200000e-07	-2.240888e-09	-1.007140e-09	-1.936753e+01	-2.838523e+01
6.300000e-07	-2.117914e-09	-9.807769e-10	-1.830470e+01	-2.758370e+01
6.400000e-07	-1.994068e-09	-9.448622e-10	-1.723432e+01	-2.673712e+01
6.500000e-07	-1.869351e-09	-9.025317e-10	-1.615643e+01	-2.583933e+01
6.600000e-07	-1.743933e-09	-8.630960e-10	-1.507246e+01	-2.488588e+01
6.700000e-07	-1.617957e-09	-8.276313e-10	-1.398369e+01	-2.387441e+01
6.800000e-07	-1.491361e-09	-7.841488e-10	-1.288955e+01	-2.280420e+01
6.900000e-07	-1.364113e-09	-7.449533e-10	-1.178977e+01	-2.167479e+01
7.000000e-07	-1.236331e-09	-7.132780e-10	-1.068538e+01	-2.048414e+01
7.100000e-07	-1.108098e-09	-6.678427e-10	-9.577094e+00	-1.922683e+01
7.200000e-07	-9.794241e-10	-6.066802e-10	-8.464995e+00	-1.789296e+01
7.300000e-07	-8.504031e-10	-5.407348e-10	-7.349897e+00	-1.646823e+01
7.400000e-07	-7.211087e-10	-4.748245e-10	-6.232436e+00	-1.493548e+01
7.500000e-07	-5.915205e-10	-4.113131e-10	-5.112436e+00	-1.327767e+01
7.600000e-07	-4.617292e-10	-3.529440e-10	-3.990681e+00	-1.148168e+01
7.700000e-07	-3.318192e-10	-2.895102e-10	-2.867901e+00	-9.542217e+00
7.800000e-07	-2.017760e-10	-2.120008e-10	-1.743969e+00	-7.465011e+00
7.900000e-07	-7.164240e-11	-1.279361e-10	-6.192550e-01	-5.268499e+00
8.000000e-07	5.850989e-11	-3.661016e-11	5.056201e-01	-2.983453e+00
8.100000e-07	1.886615e-10	6.733864e-11	1.630489e+00	-6.505588e-01
8.200000e-07	3.187555e-10	1.694675e-10	2.754860e+00	1.683754e+00
8.300000e-07	4.486947e-10	2.561857e-10	3.877894e+00	3.972471e+00
8.400000e-07	5.784824e-10	3.296359e-10	4.999618e+00	6.173242e+00
8.500000e-07	7.081207e-10	4.006315e-10	6.120051e+00	8.252773e+00
8.600000e-07	8.374781e-10	4.725095e-10	7.238056e+00	1.018964e+01
8.700000e-07	9.664567e-10	5.402834e-10	8.352788e+00	1.197517e+01
8.800000e-07	1.095066e-09	6.052255e-10	9.464324e+00	1.361229e+01
8.900000e-07	1.223300e-09	6.665536e-10	1.057263e+01	1.511295e+01
9.000000e-07	1.351045e-09	7.232032e-10	1.167670e+01	1.649454e+01
9.100000e-07	1.478177e-09	7.733152e-10	1.277546e+01	1.777617e+01
9.200000e-07	1.604703e-09	8.147980e-10	1.386901e+01	1.897557e+01
9.300000e-07	1.730665e-09	8.528784e-10	1.495767e+01	2.010689e+01
9.400000e-07	1.856063e-09	8.932562e-10	1.604145e+01	2.117981e+01
9.500000e-07	1.980805e-09	9.397560e-10	1.711957e+01	2.219982e+01
9.600000e-07	2.104743e-09	9.819109e-10	1.819074e+01	2.316926e+01
9.700000e-07	2.227833e-09	1.011389e-09	1.925458e+01	2.408884e+01
9.800000e-07	2.350086e-09	1.037528e-09	2.031118e+01	2.495912e+01
9.900000e-07	2.471481e-09	1.066963e-09	2.136037e+01	2.578158e+01
1.000000e-06	2.591937e-09	1.097254e-09	2.240144e+01	2.655913e+01
1.010000e-06	2.711326e-09	1.123771e-09	2.343329e+01	2.729602e+01
1.020000e-06	2.829609e-09	1.150426e-09	2.445558e+01	2.799728e+01
1.030000e-06	2.946791e-09	1.181742e-09	2.546836e+01	2.866792e+01
1.040000e-06	3.062770e-09	1.211017e-09	2.647075e+01	2.931217e+01
1.050000e-06	3.177430e-09	1.232593e-09	2.746172e+01	2.993290e+01
1.060000e-06	3.290726e-09	1.249483e-09	2.844091e+01	3.053148e+01
1.070000e-06	3.402642e-09	1.268142e-09	2.940817e+01	3.110798e+01
1.080000e-06	3.513220e-09	1.289224e-09	3.036388e+01	3.166166e+01
1.090000e-06	3.622542e-09	1.308936e-09	3.130872e+01	3.219166e+01
1.100000e-06	3.730511e-09	1.327323e-09	3.224188e+01	3.269762e+01
1.110000e-06	3.837001e-09	1.346091e-09	3.316224e+01	3.318009e+01
1.120000e-06	3.941996e-09	1.363562e-09	3.406969e+01	3.364070e+01
1.130000e-06	4.045429e-09	1.379542e-09	3.496364e+01	3.408192e+01
1.140000e-06	4.147317e-09	1.395819e-09	3.584424e+01	3.450665e+01
1.150000e-06	4.247647e-09	1.411091e-09	3.671137e+01	3.491759e+01
1.160000e-06	4.346308e-09	1.424931e-09	3.756407e+01	3.531668e+01
1.170000e-06	4.443248e-09	1.438467e-09	3.840190e+01	3.570468e+01
1.180000e-06	4.538432e-09	1.452323e-09	3.922456e+01	3.608109e+01
1.190000e-06	4.631916e-09	1.463233e-09	4.003252e+01	3.644436e+01
1.200000e-06	4.723720e-09	1.471693e-09	4.082596e+01	3.679245e+01
1.210000e-06	4.813757e-09	1.482166e-09	4.160413e+01	3.712345e+01
1.220000e-06	4.901911e-09	1.497242e-09	4.236602e+01	3.743627e+01
1.230000e-06	4.988159e-09	1.513601e-09	4.311144e+01	3.773110e+01
1.240000e-06	5.072562e-09	1.524433e-09	4.384092e+01	3.800952e+01
1.250000e-06	5.155088e-09	1.531368e-09	4.455417e+01	3.827429e+01
1.260000e-06	5.235611e-09	1.538856e-09	4.525012e+01	3.852871e+01
1.270000e-06	5.314052e-09	1.544718e-09	4.592807e+01	3.877583e+01
1.280000e-06	5.390358e-09	1.546813e-09	4.658757e+01	3.901774e+01
1.290000e-06	5.464435e-09	1.551639e-09	4.722779e+01	3.925501e+01
1.300000e-06	5.536295e-09	1.563815e-09	4.784886e+01	3.948657e+01
1.310000e-06	5.606058e-09	1.576174e-09	4.845181e+01	3.971002e+01
1.320000e-06	5.673718e-09	1.584277e-09	4.903658e+01	3.992242e+01
1.330000e-06	5.739129e-09	1.589877e-09	4.960191e+01	4.012113e+01
1.340000e-06	5.802305e-09	1.593092e-09	5.014793e+01	4.030475e+01
1.350000e-06	5.863405e-09	1.595440e-09	5.067601e+01	4.047360e+01
1.360000e-06	5.922390e-09	1.598680e-09	5.118581e+01	4.062985e+01
1.370000e-06	5.979060e-09	1.602250e-09	5.167559e+01	4.077697e+01
1.380000e-06	6.033323e-09	1.606785e-09	5.214457e+01	4.091887e+01
1.390000e-06	6.085002e-09	1.612972e-09	5.259122e+01	4.105875e+01
1.400000e-06	6.133932e-09	1.618606e-09	5.301411e+01	4.119817e+01
1.410000e-06	6.180332e-09	1.621949e-09	5.341514e+01	4.133645e+01
1.420000e-06	6.224451e-09	1.623486e-09	5.379645e+01	4.147078e+01
1.430000e-06	6.266158e-09	1.624222e-09	5.415692e+01	4.159691e+01
1.440000e-06	6.305364e-09	1.625360e-09	5.449577e+01	4.171027e+01
1.450000e-06	6.342274e-09	1.627080e-09	5.481477e+01	4.180732e+01
1.460000e-06	6.376852e-09	1.629074e-09	5.511363e+01	4.188661e+01
1.470000e-06	6.408920e-09	1.631322e-09	5.539078e+01	4.194928e+01
1.480000e-06	6.438604e-09	1.633922e-09	5.564733e+01	4.199886e+01
1.490000e-06	6.465953e-09	1.635066e-09	5.588370e+01	4.204034e+01
1.500000e-06	6.490732e-09	1.632740e-09	5.609787e+01	4.207875e+01
1.510000e-06	6.512979e-09	1.628259e-09	5.629015e+01	4.211779e+01
1.520000e-06	6.532939e-09	1.624753e-09	5.646265e+01	4.215872e+01
1.530000e-06	6.550467e-09	1.623944e-09	5.661415e+01	4.219999e+01
1.540000e-06	6.565342e-09	1.624225e-09	5.674271e+01	4.223783e+01
1.550000e-06	6.577536e-09	1.624501e-09	5.684810e+01	4.226739e+01
1.560000e-06	6.586953e-09	1.625042e-09	5.692949e+01	4.228446e+01
1.570000e-06	6.593706e-09	1.625576e-09	5.698786e+01	4.228695e+01
1.580000e-06	6.598053e-09	1.623787e-09	5.702543e+01	4.227585e+01
1.590000e-06	6.599912e-09	1.618941e-09	5.704150e+01	4.225517e+01
1.600000e-06	6.599267e-09	1.619808e-09	5.703592e+01	4.223097e+01
1.610000e-06	6.596389e-09	1.634715e-09	5.701105e+01	4.220956e+01
1.620000e-06	6.591285e-09	1.634849e-09	5.696694e+01	4.219541e+01
1.630000e-06	6.583798e-09	1.620023e-09	5.690223e+01	4.218947e+01
1.640000e-06	6.574022e-09	1.628041e-09	5.681774e+01	4.218837e+01
1.650000e-06	6.561880e-09	1.635424e-09	5.671281e+01	4.218492e+01
1.660000e-06	6.547234e-09	1.612515e-09	5.658622e+01	4.216989e+01
1.670000e-06	6.530370e-09	1.601119e-09	5.644047e+01	4.213467e+01
1.680000e-06	6.511474e-09	1.679877e-09	5.627716e+01	4.207418e+01
1.690000e-06	6.489957e-09	1.768801e-09	5.609119e+01	4.198921e+01
1.700000e-06	6.465016e-09	1.686381e-09	5.587563e+01	4.188745e+01
1.710000e-06	6.436661e-09	1.581352e-09	5.563058e+01	4.178284e+01
1.720000e-06	6.405525e-09	1.693477e-09	5.536148e+01	4.169322e+01
1.730000e-06	6.372176e-09	1.748658e-09	5.507325e+01	4.163669e+01
1.740000e-06	6.337072e-09	1.607671e-09	5.476985e+01	4.162761e+01
1.750000e-06	6.300540e-09	1.614904e-09	5.445411e+01	4.167313e+01
1.760000e-06	6.262077e-09	1.749238e-09	5.412169e+01	4.177106e+01
1.770000e-06	6.220980e-09	1.680859e-09	5.376650e+01	4.190982e+01
1.780000e-06	6.177604e-09	1.611845e-09	5.339161e+01	4.207034e+01
1.790000e-06	6.132050e-09	1.732936e-09	5.299790e+01	4.222961e+01
1.800000e-06	6.083946e-09	1.688998e-09	5.258215e+01	4.236511e+01
1.810000e-06	6.033404e-09	1.585014e-09	5.214533e+01	4.245890e+01
1.820000e-06	5.980247e-09	1.674574e-09	5.168591e+01	4.250066e+01
1.830000e-06	5.924572e-09	1.647213e-09	5.120472e+01	4.248891e+01
1.840000e-06	5.866718e-09	1.575768e-09	5.070470e+01	4.243020e+01
1.850000e-06	5.806556e-09	1.677944e-09	5.018474e+01	4.233666e+01
1.860000e-06	5.744095e-09	1.727833e-09	4.964491e+01	4.222250e+01
1.870000e-06	5.679280e-09	1.612163e-09	4.908473e+01	4.210047e+01
1.880000e-06	5.612204e-09	1.533166e-09	4.850501e+01	4.197905e+01
1.890000e-06	5.542985e-09	1.635289e-09	4.790676e+01	4.186102e+01
1.900000e-06	5.471429e-09	1.647873e-09	4.728832e+01	4.174363e+01
1.910000e-06	5.397651e-09	1.596537e-09	4.665068e+01	4.162013e+01
1.920000e-06	5.321678e-09	1.621887e-09	4.599406e+01	4.148211e+01
1.930000e-06	5.243376e-09	1.627787e-09	4.531732e+01	4.132201e+01
1.940000e-06	5.162913e-09	1.607965e-09	4.462189e+01	4.113497e+01
1.950000e-06	5.080525e-09	1.528010e-09	4.390984e+01	4.091978e+01
1.960000e-06	4.996341e-09	1.550172e-09	4.318226e+01	4.067861e+01
1.970000e-06	4.910181e-09	1.606083e-09	4.243760e+01	4.041585e+01
1.980000e-06	4.821976e-09	1.539103e-09	4.167526e+01	4.013653e+01
1.990000e-06	4.731975e-09	1.528836e-09	4.089741e+01	3.984470e+01
2.000000e-06	4.640214e-09	1.555000e-09	4.010433e+01	3.954241e+01
2.010000e-06	4.546667e-09	1.511968e-09	3.929584e+01	3.922948e+01
2.020000e-06	4.451335e-09	1.469960e-09	3.847190e+01	3.890399e+01
2.030000e-06	4.354297e-09	1.494446e-09	3.763323e+01	3.856328e+01
2.040000e-06	4.255675e-09	1.491441e-09	3.678086e+01	3.820509e+01
2.050000e-06	4.155450e-09	1.450691e-09	3.591464e+01	3.782836e+01
2.060000e-06	4.053590e-09	1.450589e-09	3.503429e+01	3.743354e+01
2.070000e-06	3.950055e-09	1.441867e-09	3.413946e+01	3.702215e+01
2.080000e-06	3.844973e-09	1.402824e-09	3.323126e+01	3.659603e+01
2.090000e-06	3.738474e-09	1.376867e-09	3.231082e+01	3.615631e+01
2.100000e-06	3.630578e-09	1.382851e-09	3.137830e+01	3.570264e+01
2.110000e-06	3.521337e-09	1.373005e-09	3.043416e+01	3.523295e+01
2.120000e-06	3.410730e-09	1.345845e-09	2.947820e+01	3.474375e+01
2.130000e-06	3.298702e-09	1.324062e-09	2.850997e+01	3.423094e+01
2.140000e-06	3.185260e-09	1.300050e-09	2.752952e+01	3.369088e+01
2.150000e-06	3.070472e-09	1.269755e-09	2.653744e+01	3.312126e+01
2.160000e-06	2.954353e-09	1.240321e-09	2.553385e+01	3.252154e+01
2.170000e-06	2.836981e-09	1.234547e-09	2.451944e+01	3.189274e+01
2.180000e-06	2.718486e-09	1.216984e-09	2.349531e+01	3.123663e+01
2.190000e-06	2.598874e-09	1.189935e-09	2.246153e+01	3.055460e+01
2.200000e-06	2.478186e-09	1.166365e-09	2.141845e+01	2.984650e+01
2.210000e-06	2.356603e-09	1.121369e-09	2.036764e+01	2.910995e+01
2.220000e-06	2.234254e-09	1.073923e-09	1.931021e+01	2.834027e+01
2.230000e-06	2.111034e-09	1.040778e-09	1.824524e+01	2.753114e+01
2.240000e-06	1.986916e-09	1.019139e-09	1.717253e+01	2.667577e+01
2.250000e-06	1.862018e-09	9.928735e-10	1.609306e+01	2.576825e+01
2.260000e-06	1.736375e-09	9.634575e-10	1.500716e+01	2.480449e+01
2.270000e-06	1.610034e-09	9.318496e-10	1.391522e+01	2.378250e+01
2.280000e-06	1.483065e-09	8.781592e-10	1.281786e+01	2.270172e+01
2.290000e-06	1.355521e-09	8.150450e-10	1.171552e+01	2.156154e+01
2.300000e-06	1.227396e-09	7.592394e-10	1.060817e+01	2.035945e+01
2.310000e-06	1.098746e-09	7.100196e-10	9.496278e+00	1.908928e+01
2.320000e-06	9.697296e-10	6.661739e-10	8.381219e+00	1.774029e+01
2.330000e-06	8.404103e-10	6.220615e-10	7.263541e+00	1.629750e+01
2.340000e-06	7.108345e-10	5.682783e-10	6.143646e+00	1.474356e+01
2.350000e-06	5.810855e-10	4.968707e-10	5.022255e+00	1.306181e+01
2.360000e-06	4.511733e-10	4.145914e-10	3.899454e+00	1.124025e+01
2.370000e-06	3.211027e-10	3.308693e-10	2.775283e+00	9.275352e+00
2.380000e-06	1.909191e-10	2.445120e-10	1.650136e+00	7.175061e+00
2.390000e-06	6.067537e-11	1.619073e-10	5.244689e-01	4.960097e+00
2.400000e-06	-6.961327e-11	8.250701e-11	-6.015857e-01	2.663238e+00
2.410000e-06	-1.999140e-10	-4.998586e-12	-1.727745e+00	3.265413e-01
2.420000e-06	-3.301334e-10	-9.970576e-11	-2.853202e+00	-2.003065e+00
2.430000e-06	-4.602288e-10	-1.952591e-10	-3.977587e+00	-4.279030e+00
2.440000e-06	-5.901817e-10	-2.824550e-10	-5.100741e+00	-6.460333e+00
2.450000e-06	-7.199317e-10	-3.633948e-10	-6.222142e+00	-8.515649e+00
2.460000e-06	-8.494256e-10	-4.423470e-10	-7.341329e+00	-1.042583e+01
2.470000e-06	-9.786187e-10	-5.077876e-10	-8.457916e+00	-1.218439e+01
2.480000e-06	-1.107430e-09	-5.649532e-10	-9.571202e+00	-1.379612e+01
2.490000e-06	-1.235757e-09	-6.267677e-10	-1.068030e+01	-1.527420e+01
2.500000e-06	-1.363547e-09	-6.897460e-10	-1.178476e+01	-1.663659e+01
2.510000e-06	-1.490781e-09	-7.419087e-10	-1.288442e+01	-1.790238e+01
2.520000e-06	-1.617434e-09	-7.875012e-10	-1.397906e+01	-1.908877e+01
2.530000e-06	-1.743489e-09	-8.351160e-10	-1.506851e+01	-2.020913e+01
2.540000e-06	-1.868889e-09	-8.727597e-10	-1.615232e+01	-2.127237e+01
2.550000e-06	-1.993584e-09	-9.026353e-10	-1.723002e+01	-2.228330e+01
2.560000e-06	-2.117505e-09	-9.387653e-10	-1.830105e+01	-2.324387e+01
2.570000e-06	-2.240538e-09	-9.815857e-10	-1.936440e+01	-2.415464e+01
2.580000e-06	-2.362686e-09	-1.023983e-09	-2.042009e+01	-2.501629e+01
2.590000e-06	-2.483954e-09	-1.061379e-09	-2.146818e+01	-2.583053e+01
2.600000e-06	-2.604228e-09	-1.095149e-09	-2.250768e+01	-2.660053e+01
2.610000e-06	-2.723408e-09	-1.122799e-09	-2.353773e+01	-2.733073e+01
2.620000e-06	-2.841473e-09	-1.143963e-09	-2.455813e+01	-2.802623e+01
2.630000e-06	-2.958381e-09	-1.165375e-09	-2.556854e+01	-2.869194e+01
2.640000e-06	-3.073957e-09	-1.190367e-09	-2.656744e+01	-2.933188e+01
2.650000e-06	-3.188089e-09	-1.219044e-09	-2.755386e+01	-2.994865e+01
2.660000e-06	-3.300819e-09	-1.247735e-09	-2.852815e+01	-3.054337e+01
2.670000e-06	-3.412147e-09	-1.274217e-09	-2.949033e+01	-3.111592e+01
2.680000e-06	-3.522093e-09	-1.297301e-09	-3.044057e+01	-3.166548e+01
2.690000e-06	-3.630740e-09	-1.316388e-09	-3.137958e+01	-3.219125e+01
2.700000e-06	-3.738100e-09	-1.335966e-09	-3.230747e+01	-3.269300e+01
2.710000e-06	-3.844144e-09	-1.355466e-09	-3.322399e+01	-3.317148e+01
2.720000e-06	-3.948753e-09	-1.374444e-09	-3.412810e+01	-3.362848e+01
2.730000e-06	-4.051778e-09	-1.394379e-09	-3.501852e+01	-3.406659e+01
2.740000e-06	-4.153165e-09	-1.415131e-09	-3.589478e+01	-3.448874e+01
2.750000e-06	-4.252901e-09	-1.435492e-09	-3.675679e+01	-3.489751e+01
2.760000e-06	-4.351075e-09	-1.450362e-09	-3.760527e+01	-3.529465e+01
2.770000e-06	-4.447710e-09	-1.460365e-09	-3.844047e+01	-3.568071e+01
2.780000e-06	-4.542669e-09	-1.473856e-09	-3.926118e+01	-3.605496e+01
2.790000e-06	-4.635868e-09	-1.492149e-09	-4.006668e+01	-3.641574e+01
2.800000e-06	-4.727298e-09	-1.511100e-09	-4.085689e+01	-3.676096e+01
2.810000e-06	-4.816969e-09	-1.528791e-09	-4.163190e+01	-3.708882e+01
2.820000e-06	-4.904766e-09	-1.544894e-09	-4.239071e+01	-3.739842e+01
2.830000e-06	-4.990589e-09	-1.558036e-09	-4.313246e+01	-3.769022e+01
2.840000e-06	-5.074465e-09	-1.565268e-09	-4.385737e+01	-3.796604e+01
2.850000e-06	-5.156465e-09	-1.570340e-09	-4.456608e+01	-3.822877e+01
2.860000e-06	-5.236541e-09	-1.578971e-09	-4.525816e+01	-3.848173e+01
2.870000e-06	-5.314471e-09	-1.593200e-09	-4.593170e+01	-3.872787e+01
2.880000e-06	-5.390128e-09	-1.610449e-09	-4.658558e+01	-3.896902e+01
2.890000e-06	-5.463584e-09	-1.625557e-09	-4.722044e+01	-3.920545e+01
2.900000e-06	-5.534923e-09	-1.637564e-09	-4.783702e+01	-3.943581e+01
2.910000e-06	-5.604074e-09	-1.646723e-09	-4.843467e+01	-3.965757e+01
2.920000e-06	-5.671046e-09	-1.654357e-09	-4.901349e+01	-3.986775e+01
2.930000e-06	-5.735932e-09	-1.660338e-09	-4.957429e+01	-4.006388e+01
